0.021045653
0.020940688
0.021305292
0.021385563
0.021754675
0.021447462
0.022408676
0.022081775
0.021960378
0.021376976
0.021091863
0.020159793
0.020151619
0.020381198
0.019314324
0.017222277
0.016430598
0.016294725
0.016409886
0.015662554
0.015635187
0.015697431
0.015406929
0.014201736
0.011893566
0.009224585
0.006203638
0.00245724
0.000612594
0.000280891
0.000217661
0.000281261
0.000621846
0.003093164
0.009321809
0.012805336
0.01534122
0.015961113
0.018544957
0.019299701
0.020373743
0.021559488
0.020747413
0.021657724
0.021267548
0.023098607
0.022651517
0.024516398
0.02419027
0.022240643
0.020729191
0.020775519
0.022526879
0.02296081
0.024525436
0.023613137
0.02399036
0.024913317
0.023984169
0.023939094
0.02234282
0.023606125
0.021323791
0.021563192
0.02134162
0.021846041
0.0201452
0.020129753
0.019672358
0.019086286
0.016972504
0.016002224
0.015239547
0.01487717
0.013697242
0.012485294
0.011622559
0.010675841
0.009699888
0.008474534
0.007061446
0.005667557
0.004369201
0.003300687
0.002451622
0.001816651
0.001355458
0.001032888
0.000808057
0.000645928
0.000530297
0.00044578
0.000385237
0.000341617
0.000310726
0.000289826
0.00027495
0.000264602
0.000256456
0.000250121
0.000244821
0.000240756
0.000237187
0.000233567
0.000230262
0.000227319
0.000224909
0.000221909
0.000218988
0.000216171
0.000213835
0.000211817
0.000209852
0.000208341
0.000207153
0.000206105
0.000205199
0.000204328
0.000203565
0.000202093
0.000200496
0.000198959
0.000198208
0.000197228
0.000196219
0.00019525
0.000194582
0.000194034
0.000192849
0.000191933
0.000191167
0.000191039
0.000190681
0.000190701
0.000190633
0.000190677
0.000190466
0.000190031
0.000189599
0.00018919
0.000188902
0.000188361
0.000187776
0.000186943
0.000186534
0.0001863
0.000186486
0.000186757
0.000187144
0.000187734
0.000188296
0.000188872
0.00018918
0.000189525
0.000189319
0.000189028
0.000188279
0.000187584
0.000187102
0.000186425
0.000185723
0.00018454
0.000183396
0.000182571
0.000182335
0.000182555
0.000182885
0.000183209
0.000183715
0.000184136
0.000184459
0.000184912
0.000185186
0.000185683
0.000185354
0.000184744
0.000184029
0.000183791
0.000184155
0.000184802
0.0001854
0.000185857
0.000185711
0.000185564
0.000185316
0.000185156
0.000184878
0.000184495
0.000183913
0.000183299
0.000182395
0.000181527
0.000180476
0.000179745
0.000178904
0.000178346
0.000177759
0.000177578
0.00017767
0.000177714
0.000177982
0.000178053
0.000178385
0.000178292
0.000178403
0.000178223
0.000178129
0.000177972
0.000177764
0.000177578
0.000177506
0.000177926
0.00017837
0.000178334
0.000178403
0.000178413
0.000178564
0.000178018
0.00017698
0.000175722
0.000174469
0.000173429
0.000172377
0.000171913
0.000172052
0.000172705
0.000173495
0.000174325
0.000175051
0.000175762
0.000176154
0.000176514
0.000176389
0.000176511
0.000176643
0.000176922
0.000177236
0.0001773
0.000177216
0.000176708
0.000176211
0.000175538
0.000174817
0.000173864
0.000173255
0.000172615
0.000172489
0.000172224
0.000172224
0.000171932
0.000171806
0.000171751
0.000171527
0.000171504
0.000171402
0.000172082
0.000172481
0.000173041
0.000173322
0.000173754
0.000174133
0.0001745
0.000174572
0.000174197
0.000173511
0.000172685
0.000171997
0.000171558
0.000171408
0.000171514
0.000171911
0.000172695
0.000173518
0.000174045
0.000174287
0.000174556
0.000174768
0.000175128
0.000174964
0.000174519
0.000173305
0.000172448
0.000171489
0.000170819
0.000170241
0.000170238
0.000170688
0.000170946
0.000170921
0.000170689
0.000171082
0.000171997
0.000172333
0.000171589
0.000170522
0.000170207
0.000170971
0.00017171
0.000172237
0.000172359
0.000172389
0.000172293
0.000172187
0.000172134
0.000172181
0.000171825
0.000171187
0.000170157
0.000168932
0.00016774
0.000167454
0.000168195
0.000169264
0.000169679
0.000169639
0.000169527
0.000169936
0.000169728
0.000168962
0.000167351
0.000166268
0.000165577
0.000165424
0.000166059
0.000167553
0.00016988
0.000171634
0.000172564
0.00017227
0.000171378
0.000170375
0.000169392
0.000168492
0.000167994
0.000168236
0.000169065
0.000169842
0.000170414
0.000170917
0.000171087
0.000171311
0.000171569
0.000171469
0.00017071
0.000170053
0.00017035
0.000171572
0.000173062
0.000174428
0.000175479
0.000175028
0.000173883
0.00017218
0.00017103
0.000170218
0.00017024
0.000171165
0.00017285
0.000174191
0.000175005
0.000175304
0.000175628
0.000175429
0.000174594
0.000173792
0.00017409
0.000175124
0.000176131
0.000176566
0.00017657
0.000176534
0.000176662
0.000177371
0.00017843
0.00017912
0.000179534
0.000179644
0.000180114
0.000180427
0.000180785
0.000180863
0.00018066
0.000180273
0.000180158
0.000180163
0.000180214
0.000180174
0.000180154
0.000180351
0.000180641
0.000181018
0.000181578
0.000182219
0.000182992
0.000183503
0.00018418
0.000184669
0.000184539
0.000183988
0.000183388
0.000183438
0.000184091
0.000185896
0.000187943
0.000188822
0.000188474
0.000187582
0.00018725
0.000187045
0.000186435
0.000185568
0.000184503
0.000183392
0.000182628
0.00018179
0.000181805
0.00018252
0.000184472
0.000187078
0.00018946
0.000190336
0.000190064
0.000189856
0.000190241
0.000189815
0.0001881
0.000186436
0.000186328
0.000187058
0.000188306
0.000189565
0.000190536
0.000191174
0.000191372
0.000191132
0.000190661
0.000190567
0.000191457
0.000192723
0.000193265
0.000193455
0.000193478
0.000193645
0.000193404
0.000193042
0.000192921
0.000193008
0.000192853
0.000192406
0.000191873
0.000190899
0.000189357
0.000187284
0.00018547
0.000184596
0.000184724
0.000185235
0.000185992
0.000186893
0.000188259
0.000189903
0.000191838
0.000193962
0.000195932
0.000197747
0.000199503
0.000200537
0.000201123
0.000201403
0.000201842
0.000202192
0.000202475
0.000202514
0.000202236
0.000201525
0.00020059
0.000199606
0.000198512
0.000197129
0.000196108
0.000195232
0.000194965
0.000194661
0.000194823
0.000195005
0.000195414
0.000195893
0.000196728
0.000197536
0.000198466
0.000199029
0.000199704
0.000200708
0.000202636
0.000205301
0.000207408
0.000208829
0.000209039
0.000208874
0.000208281
0.000207942
0.000207304
0.00020644
0.0002056
0.000205013
0.000204628
0.000204447
0.000204242
0.000204682
0.000205529
0.000207422
0.000209341
0.000210924
0.000211004
0.000210122
0.000209289
0.000209652
0.000210625
0.000211469
0.000211691
0.000211835
0.000211723
0.000211258
0.000210195
0.000208495
0.000206716
0.000205107
0.000203901
0.00020329
0.000203055
0.000203414
0.000204254
0.000205849
0.000207649
0.000208352
0.000208484
0.0002084
0.000208925
0.000209645
0.00020997
0.000210701
0.000211376
0.00021251
0.000213392
0.000213826
0.000214079
0.000213602
0.000212449
0.000210403
0.000208037
0.000206098
0.000204346
0.000203462
0.000203752
0.000204566
0.000205606
0.000206955
0.000209444
0.000213185
0.000216576
0.000219799
0.000222062
0.000224113
0.000224978
0.00022496
0.000223902
0.000222416
0.00022032
0.000217967
0.00021635
0.000215113
0.000213814
0.000211585
0.000208744
0.000206266
0.000204415
0.000203737
0.000204183
0.000206374
0.000210431
0.000215586
0.000220979
0.000224725
0.000228228
0.000232183
0.000236413
0.000237944
0.000234738
0.000229037
0.000222746
0.000217398
0.000213463
0.000211102
0.000210559
0.000212037
0.00021567
0.000220941
0.000227282
0.000233371
0.000238552
0.000241736
0.000243969
0.00024487
0.000245409
0.000244521
0.00024311
0.000240498
0.000237469
0.000234222
0.000231065
0.000228276
0.00022572
0.000223948
0.000223028
0.000222956
0.000223606
0.00022448
0.000225553
0.00022677
0.000228399
0.000230548
0.000232427
0.00023394
0.000235075
0.000236013
0.000237217
0.000237226
0.000237664
0.000237666
0.000239739
0.000241467
0.000243782
0.000245121
0.000246525
0.000246452
0.000244749
0.000243387
0.000243938
0.000245978
0.000247127
0.000245877
0.000244104
0.000242717
0.000243726
0.000246076
0.000249199
0.000250324
0.000250055
0.000249294
0.000249951
0.000251288
0.000253686
0.000255803
0.000256679
0.000254595
0.000251599
0.000249765
0.000250256
0.000251811
0.000254183
0.000256619
0.000258821
0.000260398
0.000261433
0.00026206
0.000262162
0.000261572
0.000260279
0.000258366
0.000257248
0.000256373
0.000256514
0.000256725
0.000257817
0.000259153
0.000261822
0.00026587
0.000270316
0.0002724
0.000273197
0.000273346
0.000274066
0.000274214
0.000273995
0.00027351
0.000272349
0.00027068
0.00026955
0.000269728
0.000270129
0.000269944
0.000269722
0.000270347
0.00027159
0.000272857
0.00027397
0.000275184
0.000276281
0.000277205
0.000277639
0.000277535
0.000277611
0.000278485
0.000281126
0.000285234
0.000290487
0.000295112
0.000298082
0.000297956
0.000295631
0.000291307
0.000285832
0.000280212
0.000276155
0.000274218
0.000274738
0.000277276
0.000282369
0.000289647
0.000297235
0.000304202
0.000308683
0.000310746
0.000310684
0.000308698
0.000305982
0.000303895
0.000302458
0.00030146
0.000300653
0.000300877
0.000302104
0.000303517
0.000304753
0.000305708
0.000305296
0.000303368
0.000300763
0.000300101
0.000302133
0.000305017
0.000307
0.000307831
0.000308724
0.000309445
0.000309863
0.000310849
0.000312275
0.000314094
0.00031549
0.00031706
0.000318718
0.000321976
0.000325293
0.000328027
0.000329392
0.000330392
0.000331339
0.000331851
0.000332489
0.0003336
0.00033448
0.000333853
0.000332602
0.000331306
0.000331434
0.000332861
0.000334806
0.000337164
0.000339753
0.000343089
0.000346443
0.000349557
0.000352203
0.000355231
0.000357813
0.000360195
0.000361374
0.000362455
0.000363356
0.0003646
0.000365005
0.000364751
0.000364458
0.000364192
0.00036389
0.000362151
0.000358404
0.000354607
0.000351021
0.000349698
0.000348989
0.000350334
0.000351661
0.000353369
0.000355107
0.000358137
0.000363114
0.000369012
0.000374636
0.0003794
0.000383859
0.000388889
0.000392746
0.000394944
0.00039572
0.00039597
0.000396845
0.000399395
0.00040373
0.000407026
0.000405437
0.000400759
0.000397165
0.000398813
0.000402404
0.000405639
0.000406049
0.000406058
0.000405652
0.000405472
0.000405195
0.000406012
0.000408148
0.000411045
0.000413626
0.000416395
0.00041953
0.000422124
0.000423731
0.000424969
0.000425963
0.000426339
0.000426037
0.000425421
0.000425187
0.000424263
0.000423262
0.000422087
0.000422351
0.00042335
0.000424488
0.000425189
0.000425799
0.000426534
0.000427846
0.000429449
0.000431943
0.000434199
0.000437739
0.000441275
0.000445586
0.000450217
0.000454882
0.000458637
0.000460889
0.000462398
0.00046354
0.000465376
0.00046585
0.000465069
0.000462929
0.000461758
0.000462603
0.000465126
0.000470782
0.000476535
0.000481214
0.000484012
0.000484965
0.000484504
0.000483055
0.000483226
0.000483641
0.000485218
0.000484614
0.000485878
0.000486594
0.000488395
0.000487817
0.000486953
0.000486944
0.000489286
0.000492321
0.000494784
0.000494351
0.000491569
0.00048831
0.000486806
0.00048728
0.000487795
0.000490244
0.000495285
0.000505806
0.000517128
0.000527229
0.000534332
0.000541227
0.00054864
0.000553056
0.000555061
0.000552534
0.00055095
0.00054813
0.000543557
0.000537001
0.00053125
0.000529036
0.000529657
0.00053231
0.000536759
0.00054273
0.000549864
0.000557733
0.000565597
0.000573698
0.000580209
0.000585487
0.000587528
0.000588553
0.000589091
0.000588632
0.000588667
0.000587372
0.000586909
0.000585335
0.000584572
0.000584302
0.000583961
0.000583353
0.00058368
0.000585555
0.000589115
0.000592593
0.00059489
0.000598063
0.000601492
0.000606785
0.000612477
0.00061841
0.000625232
0.00063027
0.000634446
0.000639266
0.000645382
0.000652312
0.000656929
0.00066005
0.000661435
0.00066144
0.000658354
0.000657122
0.000657074
0.000662166
0.000667301
0.000673826
0.000674725
0.000673736
0.000671718
0.000673391
0.000677545
0.000677989
0.000681424
0.000683916
0.000688962
0.00069091
0.000693693
0.000701713
0.000713688
0.000728089
0.000738176
0.000744911
0.000743431
0.000741857
0.000736298
0.000733434
0.000731421
0.000732676
0.000738841
0.00074669
0.000756453
0.000765199
0.000771249
0.000776603
0.000781295
0.00078651
0.000789253
0.000790445
0.000790995
0.000793072
0.000793152
0.000792612
0.000793334
0.000798496
0.000807908
0.000816808
0.000824011
0.000828272
0.000834013
0.000840545
0.000847312
0.000852014
0.000855403
0.000858768
0.000859219
0.000858862
0.000856997
0.000857239
0.000856809
0.000859958
0.000866758
0.000879407
0.000892602
0.000906405
0.000917098
0.000923006
0.000922753
0.000918588
0.000914399
0.000911659
0.000911482
0.000913005
0.000915354
0.001374843
0.002753559
2.682764491
5.100692709
0.654374869
0.381160455
0.256832561
0.270602144
0.252107729
0.258645706
0.002793142
0.001409866
0.000945033
0.000948712
0.000952943
0.000957777
0.001441401
0.00288767
0.393242513
0.440582047
0.442125819